# Time(fs) Autocorrelation(e*Ang)
1.000000000000000048e-04 1.459585718949649516e-02
2.000000000000000096e-04 1.459377482596021375e-02
2.999999999999999737e-04 1.458828252433000058e-02
4.000000000000000192e-04 1.457938554700631203e-02
5.000000000000000104e-04 1.456709247200849502e-02
5.999999999999999474e-04 1.455141517489778533e-02
6.999999999999999929e-04 1.453236880561344091e-02
8.000000000000000383e-04 1.450997175977928461e-02
8.999999999999999754e-04 1.448424564369529127e-02
1.000000000000000021e-03 1.445521523278816244e-02
1.100000000000000066e-03 1.442290842373573218e-02
1.199999999999999895e-03 1.438735618054579231e-02
1.299999999999999940e-03 1.434859247483225193e-02
1.399999999999999986e-03 1.430665422047581320e-02
1.500000000000000031e-03 1.426158120279918951e-02
1.600000000000000077e-03 1.421341600239100708e-02
1.699999999999999905e-03 1.416220391371905002e-02
1.799999999999999951e-03 1.410799285869140766e-02
1.899999999999999996e-03 1.405083329534037931e-02
2.000000000000000042e-03 1.399077812181877961e-02
2.099999999999999870e-03 1.392788257590999064e-02
2.200000000000000133e-03 1.386220413026110002e-02
2.299999999999999961e-03 1.379380238355992945e-02
2.399999999999999790e-03 1.372273894788166373e-02
2.500000000000000052e-03 1.364907733243905102e-02
2.599999999999999881e-03 1.357288282398053103e-02
2.700000000000000143e-03 1.349422236407921138e-02
2.799999999999999972e-03 1.341316442356845114e-02
2.899999999999999800e-03 1.332977887438177751e-02
3.000000000000000062e-03 1.324413685906077401e-02
3.099999999999999891e-03 1.315631065819722507e-02
3.200000000000000153e-03 1.306637355608326022e-02
3.299999999999999982e-03 1.297439970484378334e-02
3.399999999999999811e-03 1.288046398733938037e-02
3.500000000000000073e-03 1.278464187912224659e-02
3.599999999999999901e-03 1.268700930971507559e-02
3.700000000000000164e-03 1.258764252352022849e-02
3.799999999999999992e-03 1.248661794061562205e-02
3.899999999999999821e-03 1.238401201784431263e-02
4.000000000000000083e-03 1.227990111043921091e-02
4.100000000000000346e-03 1.217436133446816310e-02
4.199999999999999740e-03 1.206746843037675293e-02
4.300000000000000003e-03 1.195929762790351632e-02
4.400000000000000265e-03 1.184992351267631985e-02
4.499999999999999660e-03 1.173941989480879050e-02
4.599999999999999922e-03 1.162785967974853257e-02
4.700000000000000185e-03 1.151531474164878624e-02
4.799999999999999580e-03 1.140185579952971567e-02
4.899999999999999842e-03 1.128755229648845115e-02
5.000000000000000104e-03 1.117247228220673988e-02
5.100000000000000366e-03 1.105668229899381232e-02
5.199999999999999761e-03 1.094024727157697115e-02
5.300000000000000024e-03 1.082323040083121336e-02
5.400000000000000286e-03 1.070569306160589103e-02
5.499999999999999681e-03 1.058769470478199831e-02
5.599999999999999943e-03 1.046929276368396833e-02
5.700000000000000205e-03 1.035054256498415572e-02
5.799999999999999600e-03 1.023149724427389537e-02
5.899999999999999863e-03 1.011220766650423875e-02
6.000000000000000125e-03 9.992722351502105957e-03
6.100000000000000387e-03 9.873087404766493769e-03
6.199999999999999782e-03 9.753346453732141680e-03
6.300000000000000044e-03 9.633540589665971765e-03
6.400000000000000307e-03 9.513708315344709607e-03
6.499999999999999702e-03 9.393885498623914115e-03
6.599999999999999964e-03 9.274105331976364303e-03
6.700000000000000226e-03 9.154398298053693928e-03
6.799999999999999621e-03 9.034792141303069762e-03
6.899999999999999883e-03 8.915311845661768458e-03
7.000000000000000146e-03 8.795979618345495243e-03
7.100000000000000408e-03 8.676814879755512938e-03
7.199999999999999803e-03 8.557834259511613861e-03
7.300000000000000065e-03 8.439051598614449173e-03
7.400000000000000328e-03 8.320477957730247273e-03
7.499999999999999722e-03 8.202121631578117647e-03
7.599999999999999985e-03 8.083988169382376465e-03
7.700000000000000247e-03 7.966080401338400396e-03
7.799999999999999642e-03 7.848398471027931422e-03
7.900000000000000772e-03 7.730939873702912142e-03
8.000000000000000167e-03 7.613699500345886932e-03
8.099999999999999561e-03 7.496669687401979164e-03
8.200000000000000691e-03 7.379840272062573349e-03
8.300000000000000086e-03 7.263198652975176757e-03
8.399999999999999481e-03 7.146729856239915878e-03
8.500000000000000611e-03 7.030416606542876957e-03
8.600000000000000006e-03 6.914239403265024647e-03
8.699999999999999400e-03 6.798176601396510241e-03
8.800000000000000530e-03 6.682204497078378207e-03
8.899999999999999925e-03 6.566297417581315465e-03
8.999999999999999320e-03 6.450427815526776215e-03
9.100000000000000450e-03 6.334566367143750973e-03
9.199999999999999845e-03 6.218682074346405450e-03
9.299999999999999239e-03 6.102742370409382396e-03
9.400000000000000369e-03 5.986713229011874846e-03
9.499999999999999764e-03 5.870559276412486670e-03
9.599999999999999159e-03 5.754243906510261852e-03
9.700000000000000289e-03 5.637729398540532351e-03
9.799999999999999684e-03 5.520977037147735238e-03
9.900000000000000813e-03 5.403947234572555047e-03
1.000000000000000021e-02 5.286599654685750389e-03
1.009999999999999960e-02 5.168893338597827652e-03
1.020000000000000073e-02 5.050786831570478093e-03
1.030000000000000013e-02 4.932238310953915641e-03
1.039999999999999952e-02 4.813205714870855308e-03
1.050000000000000065e-02 4.693646871370515776e-03
1.060000000000000005e-02 4.573519627771225476e-03
1.069999999999999944e-02 4.452781979914200404e-03
1.080000000000000057e-02 4.331392201052788014e-03
1.089999999999999997e-02 4.209308970105337354e-03
1.099999999999999936e-02 4.086491499008638485e-03
1.110000000000000049e-02 3.962899658915905107e-03
1.119999999999999989e-02 3.838494104993662656e-03
1.129999999999999928e-02 3.713236399593076477e-03
1.140000000000000041e-02 3.587089133560827231e-03
1.149999999999999981e-02 3.460016045474865846e-03
1.159999999999999920e-02 3.331982138591510056e-03
1.170000000000000033e-02 3.202953795263944678e-03
1.179999999999999973e-02 3.072898888584850788e-03
1.190000000000000085e-02 2.941786891003073025e-03
1.200000000000000025e-02 2.809588979665036609e-03
1.209999999999999964e-02 2.676278138243554875e-03
1.220000000000000077e-02 2.541829255030169949e-03
1.230000000000000017e-02 2.406219217080173087e-03
1.239999999999999956e-02 2.269427000208752796e-03
1.250000000000000069e-02 2.131433754644511229e-03
1.260000000000000009e-02 1.992222886157422271e-03
1.269999999999999948e-02 1.851780132488700919e-03
1.280000000000000061e-02 1.710093634918103539e-03
1.290000000000000001e-02 1.567154004815964107e-03
1.299999999999999940e-02 1.422954385035128926e-03
1.310000000000000053e-02 1.277490506030531763e-03
1.319999999999999993e-02 1.130760736548244239e-03
1.329999999999999932e-02 9.827661287971350013e-04
1.340000000000000045e-02 8.335104580187035648e-04
1.349999999999999985e-02 6.830002563664836109e-04
1.359999999999999924e-02 5.312448410265619217e-04
1.370000000000000037e-02 3.782563365069004069e-04
1.379999999999999977e-02 2.240496910432379413e-04
1.389999999999999916e-02 6.864268709695139491e-05
1.400000000000000029e-02 -8.794405408346365658e-05
1.409999999999999969e-02 -2.456870738550461235e-04
1.420000000000000082e-02 -4.045600835309569885e-04
1.430000000000000021e-02 -5.645339776798184890e-04
1.439999999999999961e-02 -7.255768533509512289e-04
1.450000000000000074e-02 -8.876540351906396639e-04
1.460000000000000013e-02 -1.050728106400726459e-03
1.469999999999999953e-02 -1.214758945477556950e-03
1.480000000000000066e-02 -1.379703768656591854e-03
1.490000000000000005e-02 -1.545517177976199041e-03
1.499999999999999944e-02 -1.712151214865345215e-03
1.510000000000000057e-02 -1.879555419146325922e-03
1.519999999999999997e-02 -2.047676893330966068e-03
1.529999999999999936e-02 -2.216460372080194738e-03
1.540000000000000049e-02 -2.385848296686183742e-03
1.549999999999999989e-02 -2.555780894432659132e-03
1.559999999999999928e-02 -2.726196262653991613e-03
1.569999999999999868e-02 -2.897030457335090462e-03
1.580000000000000154e-02 -3.068217586071526198e-03
1.590000000000000094e-02 -3.239689905198475661e-03
1.600000000000000033e-02 -3.411377920887906888e-03
1.609999999999999973e-02 -3.583210494007319294e-03
1.619999999999999912e-02 -3.755114948521655251e-03
1.629999999999999852e-02 -3.927017183213234175e-03
1.640000000000000138e-02 -4.098841786484216931e-03
1.650000000000000078e-02 -4.270512154001798039e-03
1.660000000000000017e-02 -4.441950608940731238e-03
1.669999999999999957e-02 -4.613078524573118941e-03
1.679999999999999896e-02 -4.783816448952823465e-03
1.689999999999999836e-02 -4.954084231437451760e-03
1.700000000000000122e-02 -5.123801150789863111e-03
1.710000000000000062e-02 -5.292886044598288722e-03
1.720000000000000001e-02 -5.461257439750740773e-03
1.729999999999999941e-02 -5.628833683698162074e-03
1.739999999999999880e-02 -5.795533076238682316e-03
1.750000000000000167e-02 -5.961274001555574159e-03
1.760000000000000106e-02 -6.125975060239733858e-03
1.770000000000000046e-02 -6.289555201026808540e-03
1.779999999999999985e-02 -6.451933851980959714e-03
1.789999999999999925e-02 -6.613031050855270633e-03
1.799999999999999864e-02 -6.772767574363123752e-03
1.810000000000000150e-02 -6.931065066094489399e-03
1.820000000000000090e-02 -7.087846162815956107e-03
1.830000000000000029e-02 -7.243034618896381817e-03
1.839999999999999969e-02 -7.396555428605599766e-03
1.849999999999999908e-02 -7.548334946038360790e-03
1.859999999999999848e-02 -7.698301002426846326e-03
1.870000000000000134e-02 -7.846383020613363624e-03
1.880000000000000074e-02 -7.992512126470121062e-03
1.890000000000000013e-02 -8.136621257067669366e-03
1.899999999999999953e-02 -8.278645265408279830e-03
1.909999999999999892e-02 -8.418521021551092498e-03
1.919999999999999832e-02 -8.556187509960292564e-03
1.930000000000000118e-02 -8.691585922903151407e-03
1.940000000000000058e-02 -8.824659749710996731e-03
1.949999999999999997e-02 -8.955354861705809577e-03
1.959999999999999937e-02 -9.083619592593142333e-03
1.969999999999999876e-02 -9.209404814129400207e-03
1.980000000000000163e-02 -9.332664006885201674e-03
1.990000000000000102e-02 -9.453353325943301272e-03
2.000000000000000042e-02 -9.571431661385789921e-03
2.009999999999999981e-02 -9.686860693441740056e-03
2.019999999999999921e-02 -9.799604942179407363e-03
2.029999999999999860e-02 -9.909631811638411336e-03
2.040000000000000147e-02 -1.001691162829834725e-02
2.050000000000000086e-02 -1.012141767381197731e-02
2.060000000000000026e-02 -1.022312621197914509e-02
2.069999999999999965e-02 -1.032201650980642260e-02
2.079999999999999905e-02 -1.041807085269727193e-02
2.089999999999999844e-02 -1.051127455371459775e-02
2.100000000000000130e-02 -1.060161595689628963e-02
2.110000000000000070e-02 -1.068908643462108607e-02
2.120000000000000009e-02 -1.077368037903629790e-02
2.129999999999999949e-02 -1.085539518755996788e-02
2.139999999999999888e-02 -1.093423124249363887e-02
2.149999999999999828e-02 -1.101019188480186102e-02
2.160000000000000114e-02 -1.108328338211115108e-02
2.170000000000000054e-02 -1.115351489099889425e-02
2.179999999999999993e-02 -1.122089841365567567e-02
2.189999999999999933e-02 -1.128544874903048348e-02
2.199999999999999872e-02 -1.134718343853451106e-02
2.210000000000000159e-02 -1.140612270643534543e-02
2.220000000000000098e-02 -1.146228939508733835e-02
2.230000000000000038e-02 -1.151570889512652796e-02
2.239999999999999977e-02 -1.156640907078216110e-02
2.249999999999999917e-02 -1.161442018046697500e-02
2.259999999999999856e-02 -1.165977479281753854e-02
2.270000000000000143e-02 -1.170250769836716706e-02
2.280000000000000082e-02 -1.174265581704031849e-02
2.290000000000000022e-02 -1.178025810166876200e-02
2.299999999999999961e-02 -1.181535543773660525e-02
2.309999999999999901e-02 -1.184799053957075882e-02
2.319999999999999840e-02 -1.187820784320266915e-02
2.330000000000000127e-02 -1.190605339613501519e-02
2.340000000000000066e-02 -1.193157474425247250e-02
2.350000000000000006e-02 -1.195482081602334407e-02
2.359999999999999945e-02 -1.197584180464002397e-02
2.369999999999999885e-02 -1.199468904776170713e-02
2.380000000000000171e-02 -1.201141490552067384e-02
2.390000000000000110e-02 -1.202607263695932779e-02
2.400000000000000050e-02 -1.203871627516931581e-02
2.409999999999999989e-02 -1.204940050140260871e-02
2.419999999999999929e-02 -1.205818051842777114e-02
2.429999999999999868e-02 -1.206511192340117139e-02
2.440000000000000155e-02 -1.207025058052528521e-02
2.450000000000000094e-02 -1.207365249376164858e-02
2.460000000000000034e-02 -1.207537367986648118e-02
2.469999999999999973e-02 -1.207547004201519822e-02
2.479999999999999913e-02 -1.207399724428090404e-02
2.489999999999999852e-02 -1.207101058723354658e-02
2.500000000000000139e-02 -1.206656488492702586e-02
2.510000000000000078e-02 -1.206071434353176222e-02
2.520000000000000018e-02 -1.205351244187145843e-02
2.529999999999999957e-02 -1.204501181411056672e-02
2.539999999999999897e-02 -1.203526413483144153e-02
2.549999999999999836e-02 -1.202432000672234297e-02
2.560000000000000123e-02 -1.201222885108647886e-02
2.570000000000000062e-02 -1.199903880136633620e-02
2.580000000000000002e-02 -1.198479659987184559e-02
2.589999999999999941e-02 -1.196954749790128669e-02
2.599999999999999881e-02 -1.195333515944782543e-02
2.610000000000000167e-02 -1.193620156869545576e-02
2.620000000000000107e-02 -1.191818694151139738e-02
2.630000000000000046e-02 -1.189932964114125483e-02
2.639999999999999986e-02 -1.187966609830683369e-02
2.649999999999999925e-02 -1.185923073590805857e-02
2.659999999999999865e-02 -1.183805589847808717e-02
2.670000000000000151e-02 -1.181617178655803083e-02
2.680000000000000090e-02 -1.179360639614084050e-02
2.690000000000000030e-02 -1.177038546331027509e-02
2.699999999999999969e-02 -1.174653241419464436e-02
2.709999999999999909e-02 -1.172206832034119670e-02
2.719999999999999848e-02 -1.169701185960799437e-02
2.730000000000000135e-02 -1.167137928265451520e-02
2.740000000000000074e-02 -1.164518438510171727e-02
2.750000000000000014e-02 -1.161843848542003406e-02
2.759999999999999953e-02 -1.159115040858901303e-02
2.769999999999999893e-02 -1.156332647556531854e-02
2.779999999999999832e-02 -1.153497049857523174e-02
2.790000000000000119e-02 -1.150608378223905506e-02
2.800000000000000058e-02 -1.147666513052330965e-02
2.809999999999999998e-02 -1.144671085950293120e-02
2.819999999999999937e-02 -1.141621481590048177e-02
2.829999999999999877e-02 -1.138516840136078768e-02
2.840000000000000163e-02 -1.135356060240371584e-02
2.850000000000000103e-02 -1.132137802598754892e-02
2.860000000000000042e-02 -1.128860494060351417e-02
2.869999999999999982e-02 -1.125522332280745955e-02
2.879999999999999921e-02 -1.122121290908431081e-02
2.889999999999999861e-02 -1.118655125293036186e-02
2.900000000000000147e-02 -1.115121378702541369e-02
2.910000000000000087e-02 -1.111517389035702498e-02
2.920000000000000026e-02 -1.107840296014890938e-02
2.929999999999999966e-02 -1.104087048843537151e-02
2.939999999999999905e-02 -1.100254414311324647e-02
2.949999999999999845e-02 -1.096338985329468191e-02
2.960000000000000131e-02 -1.092337189877441717e-02
2.970000000000000070e-02 -1.088245300341733265e-02
2.980000000000000010e-02 -1.084059443226215516e-02
2.989999999999999949e-02 -1.079775609213218940e-02
2.999999999999999889e-02 -1.075389663553520843e-02
3.009999999999999828e-02 -1.070897356763182359e-02
3.020000000000000115e-02 -1.066294335603691287e-02
3.030000000000000054e-02 -1.061576154321583997e-02
3.039999999999999994e-02 -1.056738286123252296e-02
3.049999999999999933e-02 -1.051776134860470807e-02
3.059999999999999873e-02 -1.046685046901274507e-02
3.070000000000000159e-02 -1.041460323160491377e-02
3.080000000000000099e-02 -1.036097231263885532e-02
3.090000000000000038e-02 -1.030591017819598894e-02
3.099999999999999978e-02 -1.024936920770503322e-02
3.109999999999999917e-02 -1.019130181800557283e-02
3.119999999999999857e-02 -1.013166058768632388e-02
3.130000000000000143e-02 -1.007039838142945523e-02
3.139999999999999736e-02 -1.000746847409451218e-02
3.150000000000000022e-02 -9.942824674276307811e-03
3.160000000000000309e-02 -9.876421447074209062e-03
3.169999999999999901e-02 -9.808214035810520343e-03
3.180000000000000188e-02 -9.738158582439437189e-03
3.189999999999999780e-02 -9.666212246391614124e-03
3.200000000000000067e-02 -9.592333321603014815e-03
3.209999999999999659e-02 -9.516481351481465706e-03
3.219999999999999946e-02 -9.438617241568041452e-03
3.230000000000000232e-02 -9.358703369659370289e-03
3.239999999999999825e-02 -9.276703693160477660e-03
3.250000000000000111e-02 -9.192583853444645514e-03
3.259999999999999704e-02 -9.106311277008321409e-03
3.269999999999999990e-02 -9.017855273217377510e-03
3.280000000000000276e-02 -8.927187128452300502e-03
3.289999999999999869e-02 -8.834280196469045804e-03
3.300000000000000155e-02 -8.739109984800942296e-03
3.309999999999999748e-02 -8.641654237038441308e-03
3.320000000000000034e-02 -8.541893010831632521e-03
3.330000000000000321e-02 -8.439808751461297734e-03
3.339999999999999913e-02 -8.335386360829488001e-03
3.350000000000000200e-02 -8.228613261722701744e-03
3.359999999999999792e-02 -8.119479457205813766e-03
3.370000000000000079e-02 -8.007977585010952332e-03
3.379999999999999671e-02 -7.894102966797565679e-03
3.389999999999999958e-02 -7.777853652167165260e-03
3.400000000000000244e-02 -7.659230457333418909e-03
3.409999999999999837e-02 -7.538236998357182757e-03
3.420000000000000123e-02 -7.414879718873838149e-03
3.429999999999999716e-02 -7.289167912254014559e-03
3.440000000000000002e-02 -7.161113738149114949e-03
3.450000000000000289e-02 -7.030732233383093707e-03
3.459999999999999881e-02 -6.898041317166489841e-03
3.470000000000000168e-02 -6.763061790619839461e-03
3.479999999999999760e-02 -6.625817330606686983e-03
3.490000000000000047e-02 -6.486334477887580920e-03
3.500000000000000333e-02 -6.344642619618983022e-03
3.509999999999999926e-02 -6.200773966232824355e-03
3.520000000000000212e-02 -6.054763522744951824e-03
3.529999999999999805e-02 -5.906649054553609821e-03
3.540000000000000091e-02 -5.756471047794282404e-03
3.549999999999999684e-02 -5.604272664330626520e-03
3.559999999999999970e-02 -5.450099691480029401e-03
3.570000000000000256e-02 -5.294000486576605491e-03
3.579999999999999849e-02 -5.136025916484147913e-03
3.590000000000000135e-02 -4.976229292183970143e-03
3.599999999999999728e-02 -4.814666298570845562e-03
3.610000000000000014e-02 -4.651394919602363544e-03
3.620000000000000301e-02 -4.486475358954306568e-03
3.629999999999999893e-02 -4.319969956344714250e-03
3.640000000000000180e-02 -4.151943099697149794e-03
3.649999999999999772e-02 -3.982461133322661578e-03
3.660000000000000059e-02 -3.811592262307102186e-03
3.670000000000000345e-02 -3.639406453297772126e-03
3.679999999999999938e-02 -3.465975331890705068e-03
3.690000000000000224e-02 -3.291372076828249366e-03
3.699999999999999817e-02 -3.115671311220234458e-03
3.710000000000000103e-02 -2.938948991007370171e-03
3.719999999999999696e-02 -2.761282290892254181e-03
3.729999999999999982e-02 -2.582749487967495906e-03
3.740000000000000269e-02 -2.403429843276753443e-03
3.749999999999999861e-02 -2.223403481546804700e-03
3.760000000000000148e-02 -2.042751269332444136e-03
3.769999999999999740e-02 -1.861554691819972476e-03
3.780000000000000027e-02 -1.679895728535217439e-03
3.790000000000000313e-02 -1.497856728205097018e-03
3.799999999999999906e-02 -1.315520283023595806e-03
3.810000000000000192e-02 -1.132969102576218950e-03
3.819999999999999785e-02 -9.502858876757945637e-04
3.830000000000000071e-02 -7.675532043596181237e-04
3.839999999999999664e-02 -5.848533582994982312e-04
3.849999999999999950e-02 -4.022682698740299208e-04
3.860000000000000236e-02 -2.198793501540401217e-04
3.869999999999999829e-02 -3.776737804986248512e-05
3.880000000000000115e-02 1.439876211457667547e-04
3.889999999999999708e-02 3.253064955762170860e-04
3.899999999999999994e-02 5.061110847643115161e-04
3.910000000000000281e-02 6.863243354502047066e-04
3.919999999999999873e-02 8.658704147043287409e-04
3.930000000000000160e-02 1.044674821280352096e-03
3.939999999999999752e-02 1.222664493807072098e-03
